Column1,Column2
0,1.655273438
0.002,1.649233893
0.004,1.64486546
0.006,1.642062139
0.008,1.640717932
0.01,1.640726839
0.012,1.641982862
0.014,1.644380001
0.016,1.647812259
0.018,1.652173635
0.02,1.657359161
0.022,1.663307844
0.024,1.670018176
0.026,1.677492871
0.028,1.685734643
0.03,1.694732292
0.032,1.704246082
0.034,1.713849361
0.036,1.72310999
0.038,1.73159583
0.04,1.738918446
0.042,1.74504636
0.044,1.750122398
0.046,1.754290565
0.048,1.757694866
0.05,1.760436651
0.052,1.762425764
0.054,1.763518328
0.056,1.763570461
0.058,1.762438472
0.06,1.760057733
0.062,1.756564642
0.064,1.752127077
0.066,1.746912917
0.068,1.741090697
0.07,1.73486511
0.072,1.728494999
0.074,1.722243654
0.076,1.716374367
0.078,1.711146104
0.08,1.706734302
0.082,1.703238845
0.084,1.700756896
0.086,1.699385617
0.088,1.699190594
0.09,1.699944227
0.092,1.701259795
0.094,1.702749001
0.096,1.704023546
0.098,1.704764101
0.1,1.704999097
0.102,1.704866324
0.104,1.704503616
0.106,1.70404886
0.108,1.703692081
0.11,1.703771405
0.112,1.704651087
0.114,1.706695377
0.116,1.710259017
0.118,1.71500463
0.12,1.719445717
0.122,1.72198744
0.124,1.721034957
0.126,1.715097042
0.128,1.705065632
0.13,1.69421582
0.132,1.685926316
0.134,1.68357583
0.136,1.690119831
0.138,1.70402478
0.14,1.721053393
0.142,1.736931233
0.144,1.74738386
0.146,1.749026554
0.148,1.743518866
0.15,1.734295905
0.152,1.724794757
0.154,1.718452008
0.156,1.717335775
0.158,1.719162551
0.16,1.720785794
0.162,1.719058962
0.164,1.710864359
0.166,1.695991025
0.168,1.679583914
0.17,1.667364788
0.172,1.665055408
0.174,1.678133111
0.176,1.705291331
0.178,1.737723303
0.18,1.766234121
0.182,1.781628883
0.184,1.77561767
0.186,1.750935967
0.188,1.717679782
0.19,1.686079409
0.192,1.66636514
0.194,1.66684681
0.196,1.683569882
0.198,1.707756313
0.2,1.730616518
0.202,1.743361067
0.204,1.740294696
0.206,1.72675211
0.208,1.710524761
0.21,1.6994041
0.212,1.701147329
0.214,1.718452668
0.216,1.743658088
0.218,1.767833007
0.22,1.782046845
0.222,1.777611321
0.224,1.754090001
0.226,1.721135479
0.228,1.689014747
0.23,1.667994797
0.232,1.667555759
0.234,1.686092538
0.236,1.713805617
0.238,1.740703368
0.24,1.756794167
0.242,1.753858724
0.244,1.736457665
0.246,1.714757216
0.248,1.698947528
0.25,1.69921875
0.252,1.722142131
0.254,1.759813319
0.256,1.80070906
0.258,1.833306104
0.26,1.846109599
0.262,1.83428032
0.264,1.808152845
0.266,1.780166074
0.268,1.76275891
0.27,1.768132255
0.272,1.798335031
0.274,1.841682801
0.276,1.885516291
0.278,1.917176232
0.28,1.924745049
0.282,1.908484617
0.284,1.878618418
0.286,1.845662436
0.288,1.820132656
0.29,1.811156643
0.292,1.816522719
0.294,1.828482184
0.296,1.839248849
0.298,1.841036526
0.3,1.828081657
0.302,1.803701628
0.304,1.773761237
0.306,1.744125415
0.308,1.72065386
0.31,1.707020183
0.312,1.701339596
0.314,1.700856927
0.316,1.702817007
0.318,1.704493838
0.32,1.704760434
0.322,1.704884984
0.324,1.706332279
0.326,1.710567109
0.328,1.718935382
0.33,1.730485793
0.332,1.742189217
0.334,1.750941662
0.336,1.753639139
0.338,1.747680284
0.34,1.735130855
0.342,1.720589527
0.344,1.708680111
0.346,1.704026416
0.348,1.710080043
0.35,1.724382012
0.352,1.74261463
0.354,1.760459525
0.356,1.773600036
0.358,1.779258961
0.36,1.779032608
0.362,1.775288695
0.364,1.770394938
0.366,1.766704304
0.368,1.765496361
0.37,1.76626852
0.372,1.768350164
0.374,1.771070675
0.376,1.773747009
0.378,1.775410315
0.38,1.774805929
0.382,1.770666765
0.384,1.761725733
0.386,1.74742396
0.388,1.734714106
0.39,1.735073047
0.392,1.760039832
0.394,1.821153511
0.396,1.927397004
0.398,2.073261198
0.4,2.248135855
0.402,2.441405062
0.404,2.64245212
0.406,2.838499304
0.408,3.009896996
0.41,3.135632714
0.412,3.194693974
0.414,3.166220737
0.416,3.044714838
0.418,2.852983704
0.42,2.616883135
0.422,2.362268935
0.424,2.114739171
0.426,1.892738622
0.428,1.706803473
0.43,1.56706064
0.432,1.483637037
0.434,1.465073517
0.436,1.500587956
0.438,1.566498275
0.44,1.638887052
0.442,1.693836866
0.444,1.711401681
0.446,1.696997444
0.448,1.666014816
0.45,1.633868329
0.452,1.615972268
0.454,1.622889036
0.456,1.647885211
0.458,1.680375005
0.46,1.709772633
0.462,1.725531885
0.464,1.722952488
0.466,1.709306015
0.468,1.69332992
0.47,1.683761658
0.472,1.689113892
0.474,1.710243712
0.476,1.738648208
0.478,1.765254468
0.48,1.780989582
0.482,1.777527425
0.484,1.757062535
0.486,1.729566541
0.488,1.705193394
0.49,1.694097045
0.492,1.704621885
0.494,1.732063981
0.496,1.765996066
0.498,1.795966448
0.5,1.811523438
0.502,1.8055418
0.504,1.784202131
0.506,1.757011487
0.508,1.733476922
0.51,1.723085597
0.512,1.730663015
0.514,1.750406816
0.516,1.775040754
0.518,1.79728858
0.52,1.809991388
0.522,1.810995429
0.524,1.804917823
0.526,1.7968563
0.528,1.791908595
0.53,1.794868009
0.532,1.805528783
0.534,1.819596413
0.536,1.832656332
0.538,1.840293978
0.54,1.838762532
0.542,1.829768674
0.544,1.817682058
0.546,1.806890369
0.548,1.801781292
0.55,1.805591383
0.552,1.816389016
0.554,1.830792773
0.556,1.845421158
0.558,1.856895956
0.56,1.863208792
0.562,1.86583428
0.564,1.866792433
0.566,1.868103262
0.568,1.871758559
0.57,1.878203318
0.572,1.885565568
0.574,1.891783157
0.576,1.894793931
0.578,1.892682869
0.58,1.886377991
0.582,1.87937884
0.584,1.875277614
0.586,1.877666509
0.588,1.889618064
0.59,1.90937957
0.592,1.932579581
0.594,1.954820664
0.596,1.971705385
0.598,1.979899829
0.6,1.981432592
0.602,1.980018635
0.604,1.979373534
0.606,1.983211258
0.608,1.993801839
0.61,2.009313152
0.612,2.027189526
0.614,2.04487529
0.616,2.059831895
0.618,2.070766592
0.62,2.078455032
0.622,2.08386788
0.624,2.087975802
0.626,2.091745538
0.628,2.096053482
0.63,2.10168569
0.632,2.109424286
0.634,2.120051397
0.636,2.13412294
0.638,2.149795592
0.64,2.163780961
0.642,2.172770799
0.644,2.173456853
0.646,2.163558231
0.648,2.14661865
0.65,2.128232065
0.652,2.113994712
0.654,2.109501892
0.656,2.117796015
0.658,2.133801473
0.66,2.150832656
0.662,2.162203956
0.664,2.161273124
0.666,2.145767576
0.668,2.121466208
0.67,2.09501502
0.672,2.073060014
0.674,2.062023914
0.676,2.062132504
0.678,2.066760303
0.68,2.068927274
0.682,2.061653381
0.684,2.038660774
0.686,2.002226309
0.688,1.960337936
0.69,1.921087798
0.692,1.892568035
0.694,1.881273753
0.696,1.883501091
0.698,1.891534996
0.7,1.897650816
0.702,1.894124045
0.704,1.87607409
0.706,1.848758246
0.708,1.819691858
0.71,1.796390271
0.712,1.786337926
0.714,1.792454563
0.716,1.808311902
0.718,1.826337056
0.72,1.838957135
0.722,1.838785975
0.724,1.824796582
0.726,1.80373693
0.728,1.782828468
0.73,1.769292646
0.732,1.769795573
0.734,1.783179814
0.736,1.802504597
0.738,1.820693576
0.74,1.830670399
0.742,1.826674092
0.744,1.812428541
0.746,1.79581794
0.748,1.784744235
0.75,1.787109375
0.752,1.807914322
0.754,1.8405561
0.756,1.875530749
0.758,1.903334306
0.76,1.914484773
0.762,1.904646031
0.764,1.881213792
0.766,1.85321075
0.768,1.829659603
0.77,1.819435373
0.772,1.825113997
0.774,1.840750155
0.776,1.859793665
0.778,1.875694344
0.78,1.882273279
0.782,1.879448191
0.784,1.872123258
0.786,1.865349075
0.788,1.864176237
0.79,1.872856527
0.792,1.88911782
0.794,1.907502327
0.796,1.92253069
0.798,1.928723552
0.8,1.922271877
0.802,1.906865816
0.804,1.888299219
0.806,1.872366041
0.808,1.864853982
0.81,1.868936492
0.812,1.881139956
0.814,1.896949908
0.816,1.911851883
0.818,1.921383612
0.82,1.923944017
0.822,1.922217819
0.824,1.919241525
0.826,1.918051644
0.828,1.921530577
0.83,1.929582825
0.832,1.939419388
0.834,1.948154221
0.836,1.952901278
0.838,1.95115548
0.84,1.943949186
0.842,1.93423458
0.844,1.924982897
0.846,1.91916537
0.848,1.919082656
0.85,1.923654193
0.852,1.930736115
0.854,1.93818417
0.856,1.943854874
0.858,1.946296526
0.86,1.946022735
0.862,1.943893757
0.864,1.940769848
0.866,1.93750975
0.868,1.934862143
0.87,1.933392965
0.872,1.933650928
0.874,1.93618474
0.876,1.941495497
0.878,1.948989104
0.88,1.956976281
0.882,1.963720134
0.884,1.967483765
0.886,1.966761507
0.888,1.962500192
0.89,1.957123796
0.892,1.953076592
0.894,1.952802858
0.896,1.958115152
0.898,1.967244511
0.9,1.977161291
0.902,1.984834449
0.904,1.987233443
0.906,1.982709421
0.908,1.974007195
0.91,1.964742951
0.912,1.958532872
0.914,1.958968203
0.916,1.967126885
0.918,1.979455878
0.92,1.99190341
0.922,2.000417709
0.924,2.001103069
0.926,1.994395355
0.928,1.985519364
0.93,1.979947723
0.932,1.983153057
0.934,1.999951847
0.936,2.027166763
0.938,2.056283834
0.94,2.07869173
0.942,2.08577912
0.944,2.070919411
0.946,2.040160893
0.948,2.004536815
0.95,1.975092352
0.952,1.962872477
0.954,1.974848044
0.956,2.003466656
0.958,2.037941097
0.96,2.067484148
0.962,2.081351083
0.964,2.075073284
0.966,2.057034935
0.968,2.037193971
0.97,2.025508323
0.972,2.031673258
0.974,2.056438559
0.976,2.089616913
0.978,2.120354965
0.98,2.13779936
0.982,2.131988297
0.984,2.105520072
0.986,2.070277664
0.988,2.03836172
0.99,2.021872884
0.992,2.030820565
0.994,2.060134718
0.996,2.098131065
0.998,2.133097099
1,2.153320313
1.002,2.150701488
1.004,2.131594558
1.006,2.105966743
1.008,2.083785264
1.01,2.074995901
1.012,2.084520683
1.014,2.105828246
1.016,2.130798852
1.018,2.151312767
1.02,2.159390721
1.022,2.153045194
1.024,2.138394156
1.026,2.122130931
1.028,2.110948841
1.03,2.111126572
1.032,2.122134065
1.034,2.137872365
1.036,2.152078998
1.038,2.158491488
1.04,2.151874988
1.042,2.135387274
1.044,2.116284295
1.046,2.101849748
1.048,2.099367327
1.05,2.113801069
1.052,2.139700524
1.054,2.168693732
1.056,2.192408584
1.058,2.202482916
1.06,2.19471003
1.062,2.175449024
1.064,2.152713475
1.066,2.134516958
1.068,2.128774229
1.07,2.137983229
1.072,2.156528002
1.074,2.178126589
1.076,2.19649703
1.078,2.205643725
1.08,2.205104531
1.082,2.199422296
1.084,2.193320201
1.086,2.191521424
1.088,2.198204738
1.09,2.212493837
1.092,2.230768946
1.094,2.249383067
1.096,2.264689202
1.098,2.273878466
1.1,2.278367955
1.102,2.280903718
1.104,2.284232289
1.106,2.2910987
1.108,2.30289702
1.11,2.317183307
1.112,2.330836661
1.114,2.340736184
1.116,2.343782442
1.118,2.338438047
1.12,2.325759059
1.122,2.307046059
1.124,2.283599631
1.126,2.256759746
1.128,2.228772382
1.13,2.202789521
1.132,2.182002534
1.134,2.169602794
1.136,2.168308431
1.138,2.175818212
1.14,2.186807732
1.142,2.195911038
1.144,2.197762179
1.146,2.188323279
1.148,2.171086018
1.15,2.152192445
1.152,2.137787556
1.154,2.134015302
1.156,2.14415973
1.158,2.162410586
1.16,2.181154001
1.162,2.192776103
1.164,2.189717977
1.166,2.169958952
1.168,2.14168304
1.17,2.114173253
1.172,2.096712599
1.174,2.098267975
1.176,2.119032609
1.178,2.149499672
1.18,2.179660356
1.182,2.199505852
1.184,2.199919167
1.186,2.18264829
1.188,2.156694638
1.19,2.131191955
1.192,2.115273985
1.194,2.116417115
1.196,2.131513552
1.198,2.153292808
1.2,2.174474433
1.202,2.187778088
1.204,2.18810932
1.206,2.178165845
1.208,2.162380958
1.21,2.145187954
1.212,2.131012858
1.214,2.123207849
1.216,2.122925985
1.218,2.131051058
1.22,2.148466856
1.222,2.176101835
1.224,2.216405574
1.226,2.273687445
1.228,2.352370073
1.23,2.456876085
1.232,2.590919207
1.234,2.748226262
1.236,2.915141547
1.238,3.077836288
1.24,3.22248171
1.242,3.335376169
1.244,3.403734728
1.246,3.415174545
1.248,3.357314491
1.25,3.217773438
1.252,2.99283806
1.254,2.713466241
1.256,2.419283669
1.258,2.149916029
1.26,1.944918836
1.262,1.827404443
1.264,1.782997301
1.266,1.792122993
1.268,1.835207101
1.27,1.892797537
1.272,1.950660275
1.274,2.001620161
1.276,2.039003101
1.278,2.056135
1.28,2.04697308
1.282,2.015841431
1.284,1.975543238
1.286,1.939130658
1.288,1.919655847
1.29,1.928246516
1.292,1.960313425
1.294,2.00359264
1.296,2.045768269
1.298,2.074524421
1.3,2.080672803
1.302,2.069066993
1.304,2.048499642
1.306,2.027763603
1.308,2.015643081
1.31,2.017308907
1.312,2.028744453
1.314,2.044494443
1.316,2.0591036
1.318,2.067175166
1.32,2.066519991
1.322,2.059753628
1.324,2.049886012
1.326,2.039927074
1.328,2.032774299
1.33,2.029152247
1.332,2.027820073
1.334,2.027466123
1.336,2.026778739
1.338,2.024574169
1.34,2.020856314
1.342,2.016273628
1.344,2.011480965
1.346,2.007133178
1.348,2.003800644
1.35,2.001627805
1.352,2.000625157
1.354,2.000803145
1.356,2.002172036
1.358,2.00457929
1.36,2.007409849
1.362,2.009967074
1.364,2.011554326
1.366,2.011485428
1.368,2.00983537
1.37,2.007942907
1.372,2.007265947
1.374,2.009262399
1.376,2.015285772
1.378,2.024288445
1.38,2.032821661
1.382,2.037332269
1.384,2.034267115
1.386,2.020610416
1.388,1.999045879
1.39,1.975690033
1.392,1.956706579
1.394,1.94825922
1.396,1.954978043
1.398,1.972798264
1.4,1.994594551
1.402,2.013238163
1.404,2.021601439
1.406,2.015506004
1.408,2.000152
1.41,1.982599559
1.412,1.969908812
1.414,1.969093708
1.416,1.98251423
1.418,2.003955036
1.42,2.026277259
1.422,2.042342033
1.424,2.04524209
1.426,2.034498122
1.428,2.01673749
1.43,1.998955328
1.432,1.98814677
1.434,1.990661057
1.436,2.004978529
1.438,2.024326279
1.44,2.041835557
1.442,2.050637616
1.444,2.045373985
1.446,2.030331084
1.448,2.013588616
1.45,2.003235359
1.452,2.007359913
1.454,2.030540527
1.456,2.064841871
1.458,2.099541417
1.46,2.12391664
1.462,2.127292895
1.464,2.106068204
1.466,2.071124649
1.468,2.035117799
1.47,2.010703224
1.472,2.010205923
1.474,2.034692868
1.476,2.071466534
1.478,2.106991171
1.48,2.127731029
1.482,2.121232785
1.484,2.090292225
1.486,2.048977595
1.488,2.011621404
1.49,1.992556164
1.492,2.00344078
1.494,2.036655409
1.496,2.076124049
1.498,2.105734609
1.5,2.109375
1.502,2.076214981
1.504,2.016551713
1.506,1.945964205
1.508,1.880031467
1.51,1.834300214
1.512,1.816749395
1.514,1.818104619
1.516,1.826698775
1.518,1.830864754
1.52,1.81912589
1.522,1.788129111
1.524,1.745510747
1.526,1.699687187
1.528,1.659074819
1.53,1.631648203
1.532,1.618126593
1.534,1.613295107
1.536,1.611764619
1.538,1.608146001
1.54,1.597735775
1.542,1.581430144
1.544,1.562859671
1.546,1.545673435
1.548,1.533520511
1.55,1.528926366
1.552,1.529371829
1.554,1.530922591
1.556,1.52964427
1.558,1.521607891
1.56,1.5051427
1.562,1.484319762
1.564,1.464109245
1.566,1.449481316
1.568,1.445334451
1.57,1.452637437
1.572,1.466472747
1.574,1.481439693
1.576,1.492137586
1.578,1.493402911
1.58,1.484655195
1.582,1.469459304
1.584,1.451529464
1.586,1.434579898
1.588,1.422051223
1.59,1.414843481
1.592,1.412477905
1.594,1.414462045
1.596,1.420303451
1.598,1.429241876
1.6,1.439166762
1.602,1.44754292
1.604,1.451835002
1.606,1.449509347
1.608,1.439546904
1.61,1.425231548
1.612,1.410606113
1.614,1.399713433
1.616,1.396554027
1.618,1.40204952
1.62,1.412009649
1.622,1.421762184
1.624,1.426634898
1.626,1.422160296
1.628,1.408579785
1.63,1.390843671
1.632,1.374106994
1.634,1.363524794
1.636,1.363682842
1.638,1.373129039
1.64,1.386774671
1.642,1.399481042
1.644,1.406109459
1.646,1.402613316
1.648,1.391137626
1.65,1.376006818
1.652,1.361547748
1.654,1.352086659
1.656,1.350274636
1.658,1.353435885
1.66,1.357838159
1.662,1.359749214
1.664,1.355461989
1.666,1.343807448
1.668,1.328293077
1.67,1.312930003
1.672,1.301729352
1.674,1.298560058
1.676,1.303344488
1.678,1.311641744
1.68,1.318785122
1.682,1.320107922
1.684,1.311438314
1.686,1.294633479
1.688,1.275575545
1.69,1.260220071
1.692,1.254522616
1.694,1.263101145
1.696,1.282031524
1.698,1.304030059
1.7,1.321805017
1.702,1.328064809
1.704,1.318356535
1.706,1.298346548
1.708,1.275955101
1.71,1.259102447
1.712,1.255675063
1.714,1.268570299
1.716,1.290468308
1.718,1.31279821
1.72,1.326989125
1.722,1.324691473
1.724,1.305092419
1.726,1.276593837
1.728,1.248158756
1.73,1.228750205
1.732,1.226650496
1.734,1.240552061
1.736,1.262058298
1.738,1.282606411
1.74,1.293633606
1.742,1.288021767
1.744,1.269070027
1.746,1.244646797
1.748,1.222639985
1.75,1.2109375
1.752,1.214917526
1.754,1.229919347
1.756,1.248772521
1.758,1.264306605
1.76,1.269367117
1.762,1.260539304
1.764,1.242934427
1.766,1.222846145
1.768,1.206568114
1.77,1.200283588
1.772,1.205466275
1.774,1.217218932
1.776,1.230192087
1.778,1.239036267
1.78,1.23874441
1.782,1.229932183
1.784,1.217814102
1.786,1.207739716
1.788,1.205058578
1.79,1.214216943
1.792,1.232283851
1.794,1.252725998
1.796,1.268985693
1.798,1.274505243
1.8,1.264800284
1.802,1.244694996
1.804,1.221624823
1.806,1.203025342
1.808,1.196323308
1.81,1.20525855
1.812,1.224196423
1.814,1.246034349
1.816,1.263669753
1.818,1.270088446
1.82,1.263121134
1.822,1.247855744
1.824,1.229975886
1.826,1.215165172
1.828,1.208868135
1.83,1.211909503
1.832,1.220935406
1.834,1.232441417
1.836,1.242923113
1.838,1.249200224
1.84,1.251102442
1.842,1.250093008
1.844,1.247651373
1.846,1.24525699
1.848,1.244120925
1.85,1.244100996
1.852,1.244629458
1.854,1.245138408
1.856,1.245060162
1.858,1.244018773
1.86,1.242183033
1.862,1.239817812
1.864,1.237187978
1.866,1.234561132
1.868,1.232403326
1.87,1.231510115
1.872,1.232708117
1.874,1.236823952
1.876,1.244614584
1.878,1.25523493
1.88,1.266237856
1.882,1.275106577
1.884,1.279324304
1.886,1.276703703
1.888,1.268551699
1.89,1.258279815
1.892,1.249328502
1.894,1.245138208
1.896,1.248306733
1.898,1.256654485
1.9,1.266320245
1.902,1.273440928
1.904,1.27415417
1.906,1.26658217
1.908,1.255157891
1.91,1.245565871
1.912,1.243490648
1.914,1.254572038
1.916,1.27994294
1.918,1.312431867
1.92,1.343972989
1.922,1.366500478
1.924,1.372231072
1.926,1.361224016
1.928,1.342209144
1.93,1.324364992
1.932,1.316870098
1.934,1.328025054
1.936,1.355434486
1.938,1.389562428
1.94,1.420742641
1.942,1.439308889
1.944,1.437471855
1.946,1.419428589
1.948,1.394090302
1.95,1.37037949
1.952,1.357218477
1.954,1.360206157
1.956,1.373094175
1.958,1.386995391
1.96,1.393022665
1.962,1.382329198
1.964,1.352026534
1.966,1.311428267
1.968,1.271342061
1.97,1.242575579
1.972,1.235659434
1.974,1.251688927
1.976,1.280223375
1.978,1.310119586
1.98,1.330234364
1.982,1.330247194
1.984,1.311427334
1.986,1.283611446
1.988,1.256837044
1.99,1.241141638
1.992,1.244916662
1.994,1.264684034
1.996,1.291759399
1.998,1.317436184
2,1.333007813
2.002,1.332406292
2.004,1.320117946
2.006,1.303267679
2.008,1.288980395
2.01,1.284364717
2.012,1.292714029
2.014,1.308623562
2.016,1.325482274
2.018,1.336679122
2.02,1.335741452
2.022,1.322099664
2.024,1.303169667
2.026,1.286934207
2.028,1.281376027
2.03,1.293884559
2.032,1.322106389
2.034,1.355719408
2.036,1.38416752
2.038,1.396894627
2.04,1.385023036
2.042,1.353382563
2.044,1.313496492
2.046,1.276933423
2.048,1.255261957
2.05,1.25773188
2.052,1.28318228
2.054,1.327531797
2.056,1.386698926
2.058,1.456609444
2.06,1.536233033
2.062,1.632278881
2.064,1.752668093
2.066,1.905321776
2.068,2.097857142
2.07,2.321234055
2.072,2.541461157
2.074,2.722499054
2.076,2.828308352
2.078,2.824629491
2.08,2.71159576
2.082,2.520448641
2.084,2.28355045
2.086,2.033263498
2.088,1.800165726
2.09,1.598266336
2.092,1.43258242
2.094,1.308041841
2.096,1.229572461
2.098,1.199606559
2.1,1.207993094
2.102,1.24062391
2.104,1.283389406
2.106,1.32218477
2.108,1.347209027
2.11,1.360888177
2.112,1.367804837
2.114,1.372541621
2.116,1.379644806
2.118,1.39101623
2.12,1.404167182
2.122,1.416194996
2.124,1.424197005
2.126,1.425406031
2.128,1.420171106
2.13,1.411957469
2.132,1.404365851
2.134,1.40099698
2.136,1.405039281
2.138,1.415308146
2.14,1.427985084
2.142,1.439215405
2.144,1.445144421
2.146,1.442904412
2.148,1.435223296
2.15,1.426798629
2.152,1.422330159
2.154,1.426516783
2.156,1.441727802
2.158,1.462924572
2.16,1.483599273
2.162,1.497244085
2.164,1.497398863
2.166,1.482407656
2.168,1.459466663
2.17,1.436725416
2.172,1.422333447
2.174,1.424168675
2.176,1.442570489
2.178,1.469543774
2.18,1.496662101
2.182,1.515499042
2.184,1.518400709
2.186,1.507125084
2.188,1.489713476
2.19,1.474321826
2.192,1.469106076
2.194,1.480552624
2.196,1.504485868
2.198,1.532536907
2.2,1.556326803
2.202,1.56747678
2.204,1.560804564
2.206,1.542522642
2.208,1.521381502
2.21,1.506131631
2.212,1.505487243
2.214,1.522804794
2.216,1.550468622
2.218,1.579519592
2.22,1.600998571
2.222,1.606175096
2.224,1.594106362
2.226,1.573371059
2.228,1.553127714
2.23,1.542534851
2.232,1.550026911
2.234,1.573837521
2.236,1.604659651
2.238,1.633009491
2.24,1.649403233
2.242,1.646073227
2.244,1.627626655
2.246,1.604098623
2.248,1.585547398
2.25,1.58203125
2.252,1.600234511
2.254,1.633345772
2.256,1.671179685
2.258,1.703550905
2.26,1.720297841
2.262,1.716825374
2.264,1.701229098
2.266,1.683364567
2.268,1.67308734
2.27,1.680072272
2.272,1.706286325
2.274,1.743269402
2.276,1.781821264
2.278,1.812741673
2.28,1.827371252
2.282,1.825932153
2.284,1.815910754
2.286,1.805006736
2.288,1.800919779
2.29,1.810266972
2.292,1.830823909
2.294,1.856048821
2.296,1.879370709
2.298,1.894218574
2.3,1.895912643
2.302,1.888264116
2.304,1.877466108
2.306,1.869711854
2.308,1.871186988
2.31,1.884899138
2.312,1.905775465
2.314,1.92747782
2.316,1.943668057
2.318,1.948096809
2.32,1.939381047
2.322,1.923427082
2.324,1.906739546
2.326,1.895823072
2.328,1.896816508
2.33,1.908790461
2.332,1.924422335
2.334,1.936159189
2.336,1.93644808
2.338,1.918723267
2.34,1.885585618
2.342,1.84461086
2.344,1.803424088
2.346,1.769650397
2.348,1.749257275
2.35,1.739854145
2.352,1.736422049
2.354,1.733941068
2.356,1.727393329
2.358,1.713599129
2.36,1.694600914
2.362,1.67336222
2.364,1.652846585
2.366,1.635996854
2.368,1.624250416
2.37,1.616545143
2.372,1.611583245
2.374,1.608066933
2.376,1.604716939
2.378,1.600679978
2.38,1.595528751
2.382,1.588854478
2.384,1.58024838
2.386,1.569457322
2.388,1.55787898
2.39,1.547905315
2.392,1.541941952
2.394,1.542394518
2.396,1.550845151
2.398,1.56420722
2.4,1.577750711
2.402,1.586743778
2.404,1.586455412
2.406,1.574435155
2.408,1.555484549
2.41,1.535843381
2.412,1.521751441
2.414,1.519407023
2.416,1.530826826
2.418,1.550322605
2.42,1.57137633
2.422,1.587469969
2.424,1.592292627
2.426,1.585282411
2.428,1.57223345
2.43,1.5592688
2.432,1.552511517
2.434,1.557514724
2.436,1.572888049
2.438,1.592605667
2.44,1.610557187
2.442,1.620632216
2.444,1.617989075
2.446,1.605888295
2.448,1.590776966
2.45,1.579109799
2.452,1.577341377
2.454,1.58935629
2.456,1.609877717
2.458,1.631588278
2.46,1.647170594
2.462,1.649339846
2.464,1.635620174
2.466,1.613383963
2.468,1.591209456
2.47,1.577674894
2.472,1.581129146
2.474,1.602109374
2.476,1.631601855
2.478,1.660011235
2.48,1.677742164
2.482,1.675951322
2.484,1.656389927
2.486,1.6286409
2.488,1.602470765
2.49,1.587646046
2.492,1.592270244
2.494,1.612455201
2.496,1.639052901
2.498,1.662892884
2.5,1.674804688
2.502,1.668556348
2.504,1.649669891
2.506,1.626605836
2.508,1.607824706
2.51,1.601767125
2.512,1.612211181
2.514,1.632305093
2.516,1.653722915
2.518,1.668138704
2.52,1.667391046
2.522,1.650336769
2.524,1.625326813
2.526,1.601386035
2.528,1.587539295
2.53,1.592215948
2.532,1.614066591
2.534,1.643743744
2.536,1.671665078
2.538,1.688248266
2.54,1.685360971
2.542,1.666712931
2.544,1.641796454
2.546,1.620142994
2.548,1.611284006
2.55,1.621961093
2.552,1.646390357
2.554,1.675274206
2.556,1.699314868
2.558,1.709225479
2.56,1.70027778
2.562,1.679334338
2.564,1.655072703
2.566,1.636170429
2.568,1.631193339
2.57,1.642583034
2.572,1.663607576
2.574,1.686782046
2.576,1.704621527
2.578,1.709998089
2.58,1.702682088
2.582,1.688683354
2.584,1.674236526
2.586,1.665576243
2.588,1.668185211
2.59,1.680564096
2.592,1.697424303
2.594,1.713439636
2.596,1.723283899
2.598,1.722853088
2.6,1.714205795
2.602,1.70133858
2.604,1.688248712
2.606,1.678931999
2.608,1.676072673
2.61,1.678628839
2.612,1.684901384
2.614,1.693191193
2.616,1.701805633
2.618,1.70952357
2.62,1.715906705
2.622,1.720590548
2.624,1.723210606
2.626,1.723431815
2.628,1.721595908
2.63,1.718721418
2.632,1.715856306
2.634,1.714048529
2.636,1.714222231
2.638,1.715988306
2.64,1.718166679
2.642,1.719566403
2.644,1.718996534
2.646,1.71564974
2.648,1.710893595
2.65,1.706861233
2.652,1.705686637
2.654,1.709503351
2.656,1.719241829
2.658,1.732006779
2.66,1.744144172
2.662,1.75199998
2.664,1.75194779
2.666,1.743144126
2.668,1.729873323
2.67,1.716971953
2.672,1.709276587
2.674,1.711451576
2.676,1.723381221
2.678,1.739665069
2.68,1.754629177
2.682,1.762599605
2.684,1.758470628
2.686,1.74405911
2.688,1.725803412
2.69,1.710226208
2.692,1.703850173
2.694,1.711755639
2.696,1.729811891
2.698,1.750265563
2.7,1.765354621
2.702,1.767317201
2.704,1.751759901
2.706,1.726297088
2.708,1.701217669
2.71,1.686810548
2.712,1.693317278
2.714,1.723985264
2.716,1.767738638
2.718,1.811747734
2.72,1.843182886
2.722,1.849564786
2.724,1.830346029
2.726,1.799567613
2.728,1.772158938
2.73,1.763049401
2.732,1.785914243
2.734,1.836760279
2.736,1.898533453
2.738,1.953873517
2.74,1.985420226
2.742,1.9787216
2.744,1.940296528
2.746,1.885862263
2.748,1.831175313
2.75,1.791992188
2.752,1.779632424
2.754,1.787667687
2.756,1.805232669
2.758,1.821462066
2.76,1.825513478
2.762,1.811911937
2.764,1.787419405
2.766,1.760494878
2.768,1.73959735
2.77,1.733030281
2.772,1.742462592
2.774,1.760588164
2.776,1.779463803
2.778,1.791146314
2.78,1.788203473
2.782,1.771593697
2.784,1.749138139
2.786,1.728859459
2.788,1.718780319
2.79,1.725682923
2.792,1.746218656
2.794,1.772091958
2.796,1.794973777
2.798,1.806535058
2.8,1.800811291
2.802,1.782453959
2.804,1.759092578
2.806,1.73835682
2.808,1.727868176
2.81,1.731831185
2.812,1.745762345
2.814,1.763817713
2.816,1.780153342
2.818,1.788994345
2.82,1.788351171
2.822,1.781904361
2.824,1.773799866
2.826,1.768183638
2.828,1.768999513
2.83,1.776285762
2.832,1.786548083
2.834,1.796164895
2.836,1.801514617
2.838,1.799455087
2.84,1.791295744
2.842,1.780761986
2.844,1.771603182
2.846,1.767568704
2.848,1.773189983
2.85,1.796941791
2.852,1.848538974
2.854,1.937696831
2.856,2.074122191
2.858,2.259905256
2.86,2.475497808
2.862,2.697535003
2.864,2.902651994
2.866,3.067567484
2.868,3.175079385
2.87,3.218078907
2.872,3.190408889
2.874,3.085912171
2.876,2.899323555
2.878,2.645892942
2.88,2.361385337
2.882,2.082457704
2.884,1.845767007
2.886,1.684939696
2.888,1.601459633
2.89,1.577451134
2.892,1.594772461
2.894,1.635281874
2.896,1.682328731
2.898,1.727716177
2.9,1.766223051
2.902,1.792631504
2.904,1.801724798
2.906,1.791342418
2.908,1.7690424
2.91,1.744310207
2.912,1.7266313
2.914,1.72543103
2.916,1.744077001
2.918,1.7747749
2.92,1.808528328
2.922,1.836340886
2.924,1.849486782
2.926,1.846750777
2.928,1.835221211
2.93,1.822416136
2.932,1.815853603
2.934,1.822370502
2.936,1.840505129
2.938,1.863255668
2.94,1.883519232
2.942,1.894192933
2.944,1.889643086
2.946,1.873618602
2.948,1.853558511
2.95,1.836910672
2.952,1.831122802
2.954,1.840823161
2.956,1.860589308
2.958,1.882760169
2.96,1.899674673
2.962,1.903704711
2.964,1.89209105
2.966,1.872045398
2.968,1.852000345
2.97,1.840388482
2.972,1.845419896
2.974,1.867727097
2.976,1.898677952
2.978,1.929076134
2.98,1.949725317
2.982,1.952140091
2.984,1.937850358
2.986,1.915789554
2.988,1.895064676
2.99,1.88478272
2.992,1.892480149
2.994,1.91436864
2.996,1.941692531
2.998,1.96567496
3,1.977539063
3.002,1.971492037
3.004,1.953677316
3.006,1.933222391
3.008,1.919254753
3.01,1.920879139
3.012,1.941868291
3.014,1.973838814
3.016,2.006721483
3.018,2.030447074
3.02,2.035139723
3.022,2.019171572
3.024,1.992072459
3.026,1.964164228
3.028,1.945768724
3.03,1.946570227
3.032,1.965783525
3.034,1.99406038
3.036,2.021801117
3.038,2.03940606
3.04,2.038713715
3.042,2.023308203
3.044,2.002509111
3.046,1.985674855
3.048,1.982163852
3.05,1.998597304
3.052,2.029307236
3.054,2.065178272
3.056,2.097094864
3.058,2.11595208
3.06,2.117083278
3.062,2.107106722
3.064,2.094407756
3.066,2.087371728
3.068,2.094271982
3.07,2.117242714
3.072,2.149222227
3.074,2.182394004
3.076,2.208941533
3.078,2.221408012
3.08,2.219287572
3.082,2.20836144
3.084,2.194637365
3.086,2.184123097
3.088,2.182238396
3.09,2.188943273
3.092,2.201234645
3.094,2.21608003
3.096,2.230446942
3.098,2.241777202
3.1,2.249904203
3.102,2.255413419
3.104,2.258890598
3.106,2.26092138
3.108,2.261993888
3.11,2.262319196
3.112,2.262059514
3.114,2.26137705
3.116,2.260431074
3.118,2.259166805
3.12,2.257174085
3.122,2.254009247
3.124,2.249228625
3.126,2.24238745
3.128,2.233015554
3.13,2.220617379
3.132,2.204696257
3.134,2.184755526
3.136,2.160431229
3.138,2.132766982
3.14,2.103654178
3.142,2.074995865
3.144,2.048695088
3.146,2.026344394
3.148,2.007775959
3.15,1.99220231
3.152,1.978835291
3.154,1.966886716
3.156,1.955498765
3.158,1.943592185
3.16,1.930043805
3.162,1.913730457
3.164,1.893544654
3.166,1.869959459
3.168,1.846360229
3.17,1.826445964
3.172,1.813915661
3.174,1.812317584
3.176,1.821016422
3.178,1.834751551
3.18,1.848022989
3.182,1.855330751
3.184,1.8517187
3.186,1.838856362
3.188,1.822836538
3.19,1.809832722
3.192,1.80601841
3.194,1.816150377
3.196,1.835937961
3.198,1.857532197
3.2,1.873075606
3.202,1.874710873
3.204,1.85780817
3.206,1.829242916
3.208,1.798453133
3.21,1.774876843
3.212,1.767913628
3.214,1.781284896
3.216,1.807083771
3.218,1.835979558
3.22,1.858641568
3.222,1.865955926
3.224,1.856192862
3.226,1.836650695
3.228,1.815177528
3.23,1.799621469
3.232,1.79726282
3.234,1.807382732
3.236,1.823349219
3.238,1.83839167
3.24,1.845739474
3.242,1.839840723
3.244,1.823931309
3.246,1.805101681
3.248,1.790458737
3.25,1.787109375
3.252,1.799695333
3.254,1.822997709
3.256,1.849332444
3.258,1.871015477
3.26,1.88037955
3.262,1.873695097
3.264,1.856209873
3.266,1.834416623
3.268,1.814808093
3.27,1.80377455
3.272,1.803335033
3.274,1.809595286
3.276,1.818241313
3.278,1.824959115
3.28,1.825680974
3.282,1.820383349
3.284,1.812350441
3.286,1.804963576
3.288,1.801604083
3.29,1.805117997
3.292,1.813979639
3.294,1.824528591
3.296,1.833089985
3.298,1.835988949
3.3,1.830678321
3.302,1.819673964
3.304,1.80691204
3.306,1.796328782
3.308,1.791855509
3.31,1.79537009
3.312,1.803529233
3.314,1.812172075
3.316,1.817137751
3.318,1.814329151
3.32,1.803143732
3.322,1.788213494
3.324,1.774600099
3.326,1.767365207
3.328,1.771294617
3.33,1.785843447
3.332,1.805645237
3.334,1.825159805
3.336,1.838846971
3.338,1.841833106
3.34,1.835433852
3.342,1.824323862
3.344,1.813211122
3.346,1.806803615
3.348,1.80869394
3.35,1.816850636
3.352,1.827473629
3.354,1.836762198
3.356,1.840917396
3.358,1.837732133
3.36,1.829521715
3.362,1.819399113
3.364,1.810477301
3.366,1.805841574
3.368,1.806563357
3.37,1.810370447
3.372,1.814675394
3.374,1.816890748
3.376,1.814534867
3.378,1.807559679
3.38,1.798350686
3.382,1.789399196
3.384,1.783196517
3.386,1.782008932
3.388,1.785716012
3.39,1.792759807
3.392,1.801562614
3.394,1.810546729
3.396,1.818240054
3.398,1.823769229
3.4,1.826471649
3.402,1.825684942
3.404,1.820747026
3.406,1.811792963
3.408,1.801492661
3.41,1.79301875
3.412,1.789543862
3.414,1.794212624
3.416,1.807347661
3.418,1.824071811
3.42,1.838947923
3.422,1.846538843
3.424,1.841602178
3.426,1.82430099
3.428,1.800774549
3.43,1.777471394
3.432,1.760840063
3.434,1.756731248
3.436,1.763712066
3.438,1.775487141
3.44,1.785672389
3.442,1.787883727
3.444,1.777137712
3.446,1.757395648
3.448,1.736136752
3.45,1.720848663
3.452,1.71901886
3.454,1.73499652
3.456,1.761943527
3.458,1.790529976
3.46,1.81142596
3.462,1.815341826
3.464,1.798933477
3.466,1.771032678
3.468,1.741962054
3.47,1.722044232
3.472,1.721337694
3.474,1.740905103
3.476,1.770810491
3.478,1.800448099
3.48,1.819212167
3.482,1.817316001
3.484,1.796511783
3.486,1.767081476
3.488,1.739507011
3.49,1.724270317
3.492,1.730150126
3.494,1.753643796
3.496,1.785861758
3.498,1.817891449
3.5,1.840820313
3.502,1.848296192
3.504,1.844208552
3.506,1.835007261
3.508,1.82714219
3.51,1.827049609
3.512,1.837979099
3.514,1.855915087
3.516,1.875834454
3.518,1.892714082
3.52,1.901620356
3.522,1.90143737
3.524,1.896213735
3.526,1.890364649
3.528,1.888305315
3.53,1.894116111
3.532,1.906379313
3.534,1.919180279
3.536,1.926472325
3.538,1.922208765
3.54,1.901461511
3.542,1.868438057
3.544,1.831806857
3.546,1.800266573
3.548,1.782515861
3.55,1.78459569
3.552,1.800614884
3.554,1.821335024
3.556,1.83751752
3.558,1.839934215
3.56,1.823717415
3.562,1.795086444
3.564,1.761996726
3.566,1.732403682
3.568,1.714175557
3.57,1.710402081
3.572,1.717015198
3.574,1.72935933
3.576,1.742778898
3.578,1.752776917
3.58,1.757921049
3.582,1.759550915
3.584,1.759106008
3.586,1.758025823
3.588,1.757635968
3.59,1.758204572
3.592,1.759425853
3.594,1.760988333
3.596,1.762580536
3.598,1.763940999
3.6,1.765060442
3.602,1.76600889
3.604,1.766856398
3.606,1.767673145
3.608,1.768641784
3.61,1.770264494
3.612,1.773099817
3.614,1.777706292
3.616,1.78462984
3.618,1.793498155
3.62,1.802414401
3.622,1.809338002
3.624,1.812228383
3.626,1.809130552
3.628,1.800057881
3.63,1.786992106
3.632,1.772000546
3.634,1.757150521
3.636,1.744998256
3.638,1.743285488
3.64,1.762877193
3.642,1.814681272
3.644,1.909605625
3.646,2.055403474
3.648,2.241942554
3.65,2.452794987
3.652,2.671525895
3.654,2.881700066
3.656,3.065968085
3.658,3.204073432
3.66,3.275183042
3.662,3.258463845
3.664,3.133302674
3.666,2.901246224
3.668,2.60467265
3.67,2.29035746
3.672,2.005076163
3.674,1.794454764
3.676,1.672215248
3.678,1.616806897
3.68,1.604853625
3.682,1.612979346
3.684,1.619170246
3.686,1.618009035
3.688,1.615158215
3.69,1.616482418
3.692,1.627846281
3.694,1.653635494
3.696,1.688790955
3.698,1.724538979
3.7,1.752096991
3.702,1.762682606
3.704,1.751218939
3.706,1.725838348
3.708,1.697615334
3.71,1.677624399
3.712,1.676894299
3.714,1.699696679
3.716,1.736465344
3.718,1.775939742
3.72,1.806859319
3.722,1.818231561
3.724,1.808192437
3.726,1.786038754
3.728,1.761746984
3.73,1.7452936
3.732,1.745943452
3.734,1.762936111
3.736,1.788100256
3.738,1.813090827
3.74,1.829562766
3.742,1.83054685
3.744,1.818994692
3.746,1.802209444
3.748,1.787512827
3.75,1.782226563
3.752,1.791202721
3.754,1.809414766
3.756,1.829366511
3.758,1.84356177
3.76,1.844523541
3.762,1.829270659
3.764,1.805071771
3.766,1.780616983
3.768,1.764596401
3.77,1.76553169
3.772,1.784759467
3.774,1.813896592
3.776,1.843869987
3.778,1.865606575
3.78,1.870591092
3.782,1.859468149
3.784,1.840374243
3.786,1.821665856
3.788,1.811699472
3.79,1.81763021
3.792,1.836801651
3.794,1.861766337
3.796,1.885044376
3.798,1.899155872
3.8,1.898658492
3.802,1.887257861
3.804,1.871225823
3.806,1.856834351
3.808,1.850348605
3.81,1.855186984
3.812,1.867529635
3.814,1.882423278
3.816,1.894914633
3.818,1.900114483
3.82,1.896645036
3.822,1.888388302
3.824,1.879658026
3.826,1.874767952
3.828,1.877825864
3.83,1.888959669
3.832,1.904697492
3.834,1.921437755
3.836,1.935578882
3.838,1.943929852
3.84,1.947111839
3.842,1.947814955
3.844,1.948749842
3.846,1.952627142
3.848,1.961544159
3.85,1.974505595
3.852,1.989543611
3.854,2.004690015
3.856,2.017977292
3.858,2.028047725
3.86,2.035275998
3.862,2.04034236
3.864,2.04392706
3.866,2.046711069
3.868,2.049427923
3.87,2.052898431
3.872,2.057951632
3.874,2.065416562
3.876,2.076054685
3.878,2.089073239
3.88,2.102125241
3.882,2.112796129
3.884,2.118671345
3.886,2.117695699
3.888,2.111625592
3.89,2.104513157
3.892,2.100442074
3.894,2.103496024
3.896,2.116563602
3.898,2.135757823
3.9,2.154806737
3.902,2.167435737
3.904,2.167371268
3.906,2.151217317
3.908,2.124728243
3.91,2.095473143
3.912,2.071021117
3.914,2.058891745
3.916,2.061614281
3.918,2.072522884
3.92,2.08396144
3.922,2.088273838
3.924,2.078035044
3.926,2.052233491
3.928,2.016948264
3.93,1.978625391
3.932,1.9437109
3.934,1.918156933
3.936,1.901898627
3.938,1.890854185
3.94,1.880868529
3.942,1.867786577
3.944,1.848261223
3.946,1.824105202
3.948,1.79916059
3.95,1.777274318
3.952,1.762293237
3.954,1.756480154
3.956,1.756451145
3.958,1.757564566
3.96,1.755178774
3.962,1.744673421
3.964,1.724573763
3.966,1.699846918
3.968,1.67624877
3.97,1.659535203
3.972,1.655310516
3.974,1.664016505
3.976,1.679783094
3.978,1.696355828
3.98,1.707480252
3.982,1.707380992
3.984,1.697031869
3.986,1.682395852
3.988,1.669552874
3.99,1.664582866
3.992,1.67244092
3.994,1.689971149
3.996,1.710459981
3.998,1.727178662
4,1.733398438
4.002,1.724831467
4.004,1.706953561
4.006,1.687681446
4.008,1.674931846
4.01,1.676600667
4.012,1.695705385
4.014,1.724141399
4.016,1.752261682
4.018,1.770419208
4.02,1.769161778
4.022,1.74734762
4.024,1.71507711
4.026,1.683248626
4.028,1.662760545
4.03,1.66383541
4.032,1.685597869
4.034,1.718095567
4.036,1.751109619
4.038,1.774421141
4.04,1.779200563
4.042,1.767964831
4.044,1.748771474
4.046,1.729715529
4.048,1.718892036
4.05,1.722217763
4.052,1.735829774
4.054,1.753121697
4.056,1.767487021
4.058,1.77232669
4.06,1.764156605
4.062,1.747412846
4.064,1.727771698
4.066,1.710909449
4.068,1.702432046
4.07,1.704090059
4.072,1.711859036
4.074,1.721240506
4.076,1.727735996
4.078,1.727071934
4.08,1.719320625
4.082,1.708485206
4.084,1.698710441
4.086,1.694141095
4.088,1.698381037
4.09,1.710011693
4.092,1.724888725
4.094,1.738840749
4.096,1.747696382
4.098,1.748196279
4.1,1.74167983
4.102,1.730932601
4.104,1.718740686
4.106,1.707889433
4.108,1.700495453
4.11,1.696775495
4.112,1.69661121
4.114,1.69988425
4.116,1.70646689
4.118,1.715549319
4.12,1.725189254
4.122,1.733337638
4.124,1.737945417
4.126,1.737064102
4.128,1.731058229
4.13,1.722605366
4.132,1.714483645
4.134,1.709471198
4.136,1.710012045
4.138,1.715006504
4.14,1.721220513
4.142,1.725390677
4.144,1.724253604
4.146,1.715438759
4.148,1.701637693
4.15,1.687323788
4.152,1.676972409
4.154,1.675058128
4.156,1.683891018
4.158,1.698898197
4.16,1.714141724
4.162,1.723683659
4.164,1.721629486
4.166,1.706460553
4.168,1.684721121
4.17,1.663823786
4.172,1.651181145
4.174,1.653942021
4.176,1.671934277
4.178,1.696891807
4.18,1.720129645
4.182,1.732962823
4.184,1.727561189
4.186,1.706508804
4.188,1.679342223
4.19,1.655724841
4.192,1.645320051
4.194,1.655786064
4.196,1.681975635
4.198,1.713705205
4.2,1.740779166
4.202,1.753002101
4.204,1.743952462
4.206,1.720661663
4.208,1.693157546
4.21,1.671467954
4.212,1.665580494
4.214,1.679540007
4.216,1.705221174
4.218,1.733008515
4.22,1.753286551
4.222,1.756683787
4.224,1.742137977
4.226,1.71874609
4.228,1.696223763
4.23,1.684286635
4.232,1.691864039
4.234,1.716807937
4.236,1.748781664
4.238,1.777256589
4.24,1.791704078
4.242,1.783513134
4.244,1.757900404
4.246,1.726147698
4.248,1.699562707
4.25,1.689453125
4.252,1.703325058
4.254,1.733478275
4.256,1.768410958
4.258,1.796621291
4.26,1.806634094
4.262,1.793216412
4.264,1.765366606
4.266,1.734056649
4.268,1.71025852
4.27,1.704743045
4.272,1.719700866
4.274,1.745715562
4.276,1.772546802
4.278,1.789954261
4.28,1.78832699
4.282,1.768389112
4.284,1.73931783
4.286,1.710538559
4.288,1.691476713
4.29,1.69033944
4.292,1.705384309
4.294,1.730010446
4.296,1.757584083
4.298,1.781471452
4.3,1.796486442
4.302,1.803942437
4.304,1.806976084
4.306,1.80872412
4.308,1.812320191
4.31,1.819605752
4.312,1.829136698
4.314,1.838954445
4.316,1.84710041
4.318,1.851645618
4.32,1.852284156
4.322,1.851141304
4.324,1.850541901
4.326,1.852810784
4.328,1.860117331
4.33,1.871626823
4.332,1.883787352
4.334,1.892949109
4.336,1.895462285
4.338,1.888129789
4.34,1.871958213
4.342,1.850235555
4.344,1.826272453
4.346,1.803379544
4.348,1.784385588
4.35,1.769689612
4.352,1.758926553
4.354,1.751731073
4.356,1.747737586
4.358,1.746360241
4.36,1.746387412
4.362,1.746497101
4.364,1.745367309
4.366,1.741691984
4.368,1.735325392
4.37,1.728048272
4.372,1.721823
4.374,1.71861195
4.376,1.720283011
4.378,1.726530922
4.38,1.734877268
4.382,1.742749147
4.384,1.747573661
4.386,1.747074647
4.388,1.742123224
4.39,1.735486124
4.392,1.729956134
4.394,1.728326037
4.396,1.732682729
4.398,1.741111042
4.4,1.750287104
4.402,1.756885477
4.404,1.75758133
4.406,1.750719843
4.408,1.739956706
4.41,1.730000809
4.412,1.725561045
4.414,1.73130884
4.416,1.748140103
4.418,1.769994033
4.42,1.79006062
4.422,1.801529859
4.424,1.797826283
4.426,1.778884096
4.428,1.751834512
4.43,1.724181189
4.432,1.703427788
4.434,1.696728184
4.436,1.706974862
4.438,1.734215414
4.44,1.778445528
4.442,1.839660896
4.444,1.918273012
4.446,2.017348764
4.448,2.140999393
4.45,2.29333864
4.452,2.478479882
4.454,2.693402772
4.456,2.909656911
4.458,3.093127769
4.46,3.209700815
4.462,3.225401589
4.464,3.126944349
4.466,2.943411653
4.468,2.709073803
4.47,2.458201099
4.472,2.224616138
4.474,2.02689433
4.476,1.864969278
4.478,1.73763935
4.48,1.643702909
4.482,1.581833397
4.484,1.548944326
4.486,1.540648232
4.488,1.552527151
4.49,1.580163119
4.492,1.618845195
4.494,1.661749825
4.496,1.701126813
4.498,1.729222005
4.5,1.73828125
4.502,1.723837856
4.504,1.694574974
4.506,1.662463217
4.508,1.639473197
4.51,1.637547209
4.512,1.661992124
4.514,1.702987064
4.516,1.748613211
4.518,1.786951749
4.52,1.806287958
4.522,1.80361302
4.524,1.787695253
4.526,1.76813895
4.528,1.754548403
4.53,1.755954669
4.532,1.771975658
4.534,1.794530244
4.536,1.81531123
4.538,1.82601142
4.54,1.81964599
4.542,1.800029913
4.544,1.776251772
4.546,1.757435858
4.548,1.752706461
4.55,1.768354475
4.552,1.797949815
4.554,1.831493861
4.556,1.858987811
4.558,1.870444707
4.56,1.860826631
4.562,1.837679223
4.564,1.810518557
4.566,1.78886071
4.568,1.782104119
4.57,1.793198951
4.572,1.815436442
4.574,1.841315009
4.576,1.863333067
4.578,1.874298931
4.58,1.873009243
4.582,1.86367707
4.584,1.85071063
4.586,1.838518144
4.588,1.831145175
4.59,1.829269874
4.592,1.831742843
4.594,1.837396548
4.596,1.845063455
4.598,1.853659736
4.6,1.862523611
4.602,1.871126026
4.604,1.878937977
4.606,1.885430691
4.608,1.890285502
4.61,1.893780643
4.612,1.896299631
4.614,1.898225981
4.616,1.899942868
4.618,1.901808602
4.62,1.90414022
4.622,1.907250863
4.624,1.911453674
4.626,1.91704865
4.628,1.924033417
4.63,1.932103238
4.632,1.940940225
4.634,1.950226494
4.636,1.959612679
4.638,1.968415554
4.64,1.975750802
4.642,1.980731346
4.644,1.982470105
4.646,1.980567578
4.648,1.977388576
4.65,1.976270937
4.652,1.980553584
4.654,1.993574738
4.656,2.01675688
4.658,2.045430581
4.66,2.073718235
4.662,2.095742237
4.664,2.105667691
4.666,2.101963524
4.668,2.091028835
4.67,2.080116764
4.672,2.076480449
4.674,2.087104051
4.676,2.111506327
4.678,2.140952373
4.68,2.166280156
4.682,2.178327644
4.684,2.168906178
4.686,2.141685683
4.688,2.10825284
4.69,2.080338759
4.692,2.069674549
4.694,2.085469571
4.696,2.120828837
4.698,2.162523615
4.7,2.197310016
4.702,2.211944402
4.704,2.198086993
4.706,2.164879119
4.708,2.125355747
4.71,2.09255184
4.712,2.079448375
4.714,2.09105219
4.716,2.116039927
4.718,2.141088697
4.72,2.152875609
4.722,2.138414616
4.724,2.096191274
4.726,2.038716774
4.728,1.979356433
4.73,1.931475566
4.732,1.907477522
4.734,1.906213541
4.736,1.916516865
4.738,1.926985878
4.74,1.926218966
4.742,1.904725504
4.744,1.86679458
4.746,1.822759423
4.748,1.782979056
4.75,1.7578125
4.752,1.754269909
4.754,1.765965958
4.756,1.783166451
4.758,1.796137194
4.76,1.795166905
4.762,1.775913282
4.764,1.746274479
4.766,1.715846173
4.768,1.69422404
4.77,1.6908186
4.772,1.707142387
4.774,1.734023726
4.776,1.761532546
4.778,1.779738775
4.78,1.779310809
4.782,1.760744498
4.784,1.73257359
4.786,1.703567855
4.788,1.682497061
4.79,1.676977863
4.792,1.685209447
4.794,1.700792384
4.796,1.717296114
4.798,1.728290073
4.8,1.729011399
4.802,1.722184632
4.804,1.712634703
4.806,1.705186652
4.808,1.704659899
4.81,1.713525965
4.812,1.728286542
4.814,1.744508514
4.816,1.757758768
4.818,1.763658452
4.82,1.760803013
4.822,1.752243138
4.824,1.741395205
4.826,1.731675591
4.828,1.72636363
4.83,1.726090443
4.832,1.729091854
4.834,1.733517383
4.836,1.737516551
4.838,1.739464136
4.84,1.739826507
4.842,1.740205179
4.844,1.742212929
4.846,1.747462534
4.848,1.75699419
4.85,1.76896099
4.852,1.780608116
4.854,1.789180417
4.856,1.791924168
4.858,1.78736858
4.86,1.777687611
4.862,1.765698087
4.864,1.754216836
4.866,1.746044079
4.868,1.742771883
4.87,1.743986417
4.872,1.749084727
4.874,1.757463861
4.876,1.768475554
4.878,1.780429445
4.88,1.790593071
4.882,1.796188662
4.884,1.794438448
4.886,1.783016172
4.888,1.764384498
4.89,1.743890464
4.892,1.726920746
4.894,1.718862021
4.896,1.723774049
4.898,1.738193612
4.9,1.756009438
4.902,1.771107309
4.904,1.77737392
4.906,1.771190774
4.908,1.756872693
4.91,1.740307868
4.912,1.727384488
4.914,1.723951746
4.916,1.731928836
4.918,1.745993593
4.92,1.760043991
4.922,1.767978003
4.924,1.76391562
4.926,1.748138763
4.928,1.727741913
4.93,1.710172102
4.932,1.702876361
4.934,1.712526824
4.936,1.736355061
4.938,1.765290151
4.94,1.790146193
4.942,1.801737286
4.944,1.792793261
4.946,1.768278174
4.948,1.737967722
4.95,1.71164912
4.952,1.699109402
4.954,1.70660448
4.956,1.727802649
4.958,1.753568515
4.96,1.774766684
4.962,1.782298012
4.964,1.77241778
4.966,1.752346556
4.968,1.730647543
4.97,1.715883943
4.972,1.716396839
4.974,1.732962779
4.976,1.757109609
4.978,1.779801954
4.98,1.792004439
4.982,1.785438196
4.984,1.762481927
4.986,1.733392638
4.988,1.708612026
4.99,1.69858179
4.992,1.711781272
4.994,1.742539706
4.996,1.77897972
4.998,1.809197458
5,1.821289063
5.002,1.807443853
5.004,1.776223864
5.006,1.740284308
5.008,1.712280396
5.01,1.704837384
5.012,1.723561133
5.014,1.758054351
5.016,1.795700406
5.018,1.823882668
5.02,1.830215198
5.022,1.812152339
5.024,1.780460139
5.026,1.746849545
5.028,1.723031507
5.03,1.720006153
5.032,1.737101166
5.034,1.764097309
5.036,1.790495013
5.038,1.805794712
5.04,1.801050975
5.042,1.780010987
5.044,1.752619826
5.046,1.728864528
5.048,1.718732132
5.05,1.72925728
5.052,1.754219348
5.054,1.783679302
5.056,1.807697917
5.058,1.816347746
5.06,1.804623484
5.062,1.780034984
5.064,1.752051826
5.066,1.73014359
5.068,1.72366159
5.07,1.735474486
5.072,1.758740511
5.074,1.785820849
5.076,1.809076683
5.078,1.821170718
5.08,1.820592134
5.082,1.811100139
5.084,1.796643818
5.086,1.781172257
5.088,1.768430127
5.09,1.760264005
5.092,1.757490349
5.094,1.760915392
5.096,1.771345367
5.098,1.788955115
5.1,1.810735829
5.102,1.832677534
5.104,1.85076989
5.106,1.861004852
5.108,1.861438202
5.11,1.85598894
5.112,1.849610235
5.114,1.847255253
5.116,1.853827592
5.118,1.870623849
5.12,1.892951928
5.122,1.9155551
5.124,1.933176636
5.126,1.940740551
5.128,1.937327996
5.13,1.926177256
5.132,1.91070736
5.134,1.89433734
5.136,1.880210608
5.138,1.868547305
5.14,1.857806875
5.142,1.846424569
5.144,1.832835636
5.146,1.816013936
5.148,1.79798701
5.15,1.781857275
5.152,1.770728345
5.154,1.767703196
5.156,1.774135277
5.158,1.785814674
5.16,1.797428123
5.162,1.803662361
5.164,1.799244421
5.166,1.782962314
5.168,1.761086752
5.17,1.740694299
5.172,1.728861518
5.174,1.732401211
5.176,1.750805649
5.178,1.775473601
5.18,1.797385001
5.182,1.80751978
5.184,1.797794118
5.186,1.771530481
5.188,1.739666137
5.19,1.713277275
5.192,1.703440083
5.194,1.718812345
5.196,1.752607486
5.198,1.791964753
5.2,1.824008858
5.202,1.835864768
5.204,1.819683988
5.206,1.785536443
5.208,1.747483096
5.21,1.71958491
5.212,1.71584354
5.214,1.741500348
5.216,1.78385655
5.218,1.828016701
5.22,1.859085355
5.222,1.862533632
5.224,1.836316479
5.226,1.793652065
5.228,1.748688049
5.23,1.71557209
5.232,1.707808625
5.234,1.729840427
5.236,1.779411702
5.238,1.854109619
5.24,1.951521346
5.242,2.069328911
5.244,2.205898356
5.246,2.359895746
5.248,2.529988428
5.25,2.71484375
5.252,2.907918921
5.254,3.081830601
5.256,3.203985317
5.258,3.241789591
5.26,3.16275001
5.262,2.957820491
5.264,2.671411275
5.266,2.355345998
5.268,2.061448298
5.27,1.840808759
5.272,1.713249011
5.274,1.656290796
5.276,1.644453285
5.278,1.65225565
5.28,1.655285929
5.282,1.646684096
5.284,1.633945898
5.286,1.624988614
5.288,1.627729523
5.29,1.64877584
5.292,1.684035501
5.294,1.724191912
5.296,1.759893108
5.298,1.781787123
5.3,1.783269327
5.302,1.770069699
5.304,1.751378368
5.306,1.736385637
5.308,1.734271437
5.31,1.749881568
5.312,1.777041758
5.314,1.807852118
5.316,1.834412761
5.318,1.848918503
5.32,1.848755246
5.322,1.839084667
5.324,1.825706694
5.326,1.814421257
5.328,1.810781099
5.33,1.815562508
5.332,1.825221478
5.334,1.836058345
5.336,1.844373447
5.338,1.8468815
5.34,1.844144935
5.342,1.838814397
5.344,1.833561255
5.346,1.831056875
5.348,1.833432448
5.35,1.840095452
5.352,1.849596833
5.354,1.860487224
5.356,1.871317485
5.358,1.880842132
5.36,1.888394253
5.362,1.893408987
5.364,1.895321472
5.366,1.893579917
5.368,1.888583513
5.37,1.882310365
5.372,1.876887447
5.374,1.87444173
5.376,1.877000243
5.378,1.884291361
5.38,1.893744798
5.382,1.902690328
5.384,1.908457726
5.386,1.908705891
5.388,1.904584537
5.39,1.899345902
5.392,1.896271119
5.394,1.898641319
5.396,1.90885251
5.398,1.924282467
5.4,1.940542571
5.402,1.953242239
5.404,1.957991643
5.406,1.952473658
5.408,1.940962202
5.41,1.929038358
5.412,1.922283208
5.414,1.926237364
5.416,1.942363382
5.418,1.964609639
5.42,1.986115269
5.422,2.000019408
5.424,1.999720172
5.426,1.985803524
5.428,1.966802232
5.43,1.951660311
5.432,1.949321778
5.434,1.9677775
5.436,2.00340619
5.438,2.04483432
5.44,2.080546933
5.442,2.099029072
5.444,2.091280278
5.446,2.064358123
5.448,2.031635705
5.45,2.006501237
5.452,2.002342668
5.454,2.027370696
5.456,2.071340332
5.458,2.119895883
5.46,2.158681657
5.462,2.173402157
5.464,2.158653311
5.466,2.127239735
5.468,2.094195589
5.47,2.074555033
5.472,2.082957336
5.474,2.120593244
5.476,2.172210805
5.478,2.221556753
5.48,2.25237782
5.482,2.249713252
5.484,2.216811086
5.486,2.170379677
5.488,2.127442937
5.49,2.105024774
5.492,2.117180642
5.494,2.156561093
5.496,2.206427941
5.498,2.250002933
5.5,2.270507813
5.502,2.256552747
5.504,2.218301582
5.506,2.171306583
5.508,2.131120017
5.51,2.113257802
5.512,2.124718625
5.514,2.153083188
5.516,2.183239281
5.518,2.200074695
5.52,2.18876376
5.522,2.1467035
5.524,2.087825495
5.526,2.027234998
5.528,1.980037261
5.53,1.960408118
5.532,1.967261343
5.534,1.987027831
5.536,2.005771939
5.538,2.009558025
5.54,1.986490408
5.542,1.941333762
5.544,1.886988124
5.546,1.836408607
5.548,1.802550328
5.55,1.79493721
5.552,1.80768829
5.554,1.830601167
5.556,1.853473225
5.558,1.866111982
5.56,1.862560929
5.562,1.84763405
5.564,1.827831862
5.566,1.809654882
5.568,1.799531484
5.57,1.799935608
5.572,1.807417804
5.574,1.818042423
5.576,1.827873816
5.578,1.83312714
5.58,1.83293173
5.582,1.829052778
5.584,1.823350447
5.586,1.8176849
5.588,1.813755964
5.59,1.811774683
5.592,1.811144113
5.594,1.811259294
5.596,1.811515264
5.598,1.811459732
5.6,1.811410211
5.602,1.811926294
5.604,1.813567661
5.606,1.816893433
5.608,1.821957694
5.61,1.827379748
5.612,1.83152583
5.614,1.832762175
5.616,1.829477881
5.618,1.8217257
5.62,1.812320547
5.622,1.804337758
5.624,1.800852673
5.626,1.804791632
5.628,1.815654009
5.63,1.829512214
5.632,1.842289656
5.634,1.849909747
5.636,1.848713593
5.638,1.83947253
5.64,1.825626227
5.642,1.810651023
5.644,1.798023257
5.646,1.790748805
5.648,1.789166222
5.65,1.792675186
5.652,1.800674325
5.654,1.812562057
5.656,1.827146008
5.658,1.841355139
5.66,1.851745825
5.662,1.854874443
5.664,1.847330461
5.666,1.829038023
5.668,1.806065708
5.67,1.785143821
5.672,1.773002668
5.674,1.776119487
5.676,1.793947761
5.678,1.818175595
5.68,1.840089233
5.682,1.850974919
5.684,1.842999925
5.686,1.819065051
5.688,1.789236764
5.69,1.763712264
5.692,1.752688745
5.694,1.764171496
5.696,1.79216788
5.698,1.825179957
5.7,1.851696615
5.702,1.860206967
5.704,1.84365903
5.706,1.810895759
5.708,1.774300447
5.71,1.746256391
5.712,1.7390944
5.714,1.757393406
5.716,1.789857303
5.718,1.823246187
5.72,1.84432015
5.722,1.840185774
5.724,1.809749651
5.726,1.766345532
5.728,1.724185746
5.73,1.69748262
5.732,1.699349519
5.734,1.727417706
5.736,1.767873756
5.738,1.806635942
5.74,1.829622535
5.742,1.825116962
5.744,1.798457252
5.746,1.762462024
5.748,1.729981822
5.75,1.713867188
5.752,1.722912953
5.754,1.749691105
5.756,1.782717922
5.758,1.810509679
5.76,1.821608606
5.762,1.810638403
5.764,1.786087587
5.766,1.75836747
5.768,1.737889362
5.77,1.734872336
5.772,1.751335403
5.774,1.778204727
5.776,1.805619069
5.778,1.823717192
5.78,1.823258267
5.782,1.805189272
5.784,1.778789819
5.786,1.753584192
5.788,1.739096674
5.79,1.743407024
5.792,1.762797556
5.794,1.787789815
5.796,1.808866346
5.798,1.81650969
5.8,1.804068599
5.802,1.77776013
5.804,1.747411204
5.806,1.722848923
5.808,1.713888987
5.81,1.72558176
5.812,1.750861143
5.814,1.780763741
5.816,1.806326156
5.818,1.818692007
5.82,1.814870734
5.822,1.800658247
5.824,1.782571668
5.826,1.767128116
5.828,1.760573054
5.83,1.763902538
5.832,1.773364556
5.834,1.785036021
5.836,1.794993849
5.838,1.799721051
5.84,1.799471432
5.842,1.796545266
5.844,1.793263134
5.846,1.791945617
5.848,1.794528645
5.85,1.801008643
5.852,1.810772113
5.854,1.823205336
5.856,1.837694445
5.858,1.853494292
5.86,1.86948676
5.862,1.884487947
5.864,1.89731395
5.866,1.906790829
5.868,1.912469352
5.87,1.915103518
5.872,1.915560777
5.874,1.914708573
5.876,1.91334866
5.878,1.910771817
5.88,1.904757856
5.882,1.89302089
5.884,1.873275034
5.886,1.84373103
5.888,1.807866985
5.89,1.772333553
5.892,1.743824986
5.894,1.729035539
5.896,1.732916914
5.898,1.7505414
5.9,1.773503775
5.902,1.793394952
5.904,1.801807025
5.906,1.793570157
5.908,1.773811336
5.91,1.749699659
5.912,1.728404225
5.914,1.717052057
5.916,1.718530116
5.918,1.727912685
5.92,1.73943266
5.922,1.747322935
5.924,1.74600727
5.926,1.735206832
5.928,1.720499536
5.93,1.707766383
5.932,1.702888377
5.934,1.711124291
5.936,1.730152294
5.938,1.752589769
5.94,1.770961773
5.942,1.777793361
5.944,1.767298823
5.946,1.744480185
5.948,1.718582228
5.95,1.698859885
5.952,1.694567902
5.954,1.711213679
5.956,1.74094623
5.958,1.772939203
5.96,1.796366246
5.962,1.800447566
5.964,1.781280284
5.966,1.749044713
5.968,1.715645566
5.97,1.692987557
5.972,1.69266025
5.974,1.715520315
5.976,1.749301974
5.978,1.780940323
5.98,1.797370458
5.982,1.787131306
5.984,1.761356378
5.986,1.747881576
5.988,1.77493436
5.99,1.87074219
5.992,2.05740209
5.994,2.312805861
5.996,2.595455748
5.998,2.863771253
6,3.076171875
6.002,3.199360535
6.004,3.233173831
6.006,3.185731778
6.008,3.065154394
6.01,2.879584108
6.012,2.642415133
6.014,2.379014955
6.016,2.116411526
6.018,1.881632798
6.02,1.701333245
6.022,1.586236213
6.024,1.525513805
6.026,1.506808354
6.028,1.517762191
6.03,1.546252617
6.032,1.584015328
6.034,1.625941819
6.036,1.667016248
6.038,1.70222277
6.04,1.726545545
6.042,1.73496873
6.044,1.722476482
6.046,1.684052958
6.048,1.614682317
6.05,1.509348715
6.052,1.36303631
6.054,1.17072926
